time,linear.velocity.x,linear.velocity.y,linear.velocity.z,angular.velocity.x,angular.velocity.y,angular.velocity.z,gps.latitude,gps.longitude,gps.height,gps.health
23.811135,-9.435671,-2.095577,0.003823,0.000295,0.179546,-0.000257,22.542758,113.958786,5.521338,5
23.832349,-9.478254,-2.103521,0.004005,0.000285,0.184626,-0.000258,22.542758,113.958783,5.521419,5
23.850988,-9.519641,-2.111228,0.004180,0.000279,0.190243,-0.000259,22.542757,113.958782,5.521502,5
23.877675,-9.559829,-2.118695,0.004346,0.000282,0.186809,-0.000258,22.542757,113.958780,5.521590,5
23.898488,-9.598806,-2.125922,0.004522,0.000280,0.192887,-0.000259,22.542757,113.958778,5.521681,5
23.918032,-9.636382,-2.132874,0.004796,0.000290,0.182157,-0.000258,22.542756,113.958776,5.521777,5
23.941357,-9.672026,-2.139451,0.005267,0.000568,0.218583,-0.000315,22.542756,113.958775,5.521881,5
23.958196,-9.705050,-2.145521,0.005907,0.003928,0.634050,-0.000810,22.542756,113.958773,5.521998,5
23.977665,-9.734902,-2.150978,0.006776,0.004007,0.701617,-0.000910,22.542755,113.958771,5.522132,5
23.997920,-9.760911,-2.155689,0.007810,0.003234,0.489928,-0.000627,22.542755,113.958769,5.522286,5
24.017736,-9.782396,-2.159519,0.008931,0.003968,1.110966,-0.001440,22.542754,113.958767,5.522463,5
24.039245,-9.798853,-2.162366,0.010071,0.003821,1.169563,-0.001533,22.542754,113.958765,5.522664,5
24.057699,-9.809969,-2.164167,0.011167,0.003637,1.218741,-0.001625,22.542754,113.958763,5.522887,5
24.077957,-9.815559,-2.164884,0.012160,0.003232,1.296570,-0.001798,22.542753,113.958761,5.523131,5
24.098383,-9.815509,-2.164492,0.013021,0.003435,1.260765,-0.001714,22.542753,113.958759,5.523393,5
24.117653,-9.809712,-2.162972,0.013711,0.002249,1.449907,-0.002239,22.542752,113.958757,5.523670,5
24.139089,-9.798198,-2.160326,0.014217,0.001908,1.444308,-0.002343,22.542752,113.958755,5.523958,5
24.157926,-9.781142,-2.156589,0.014518,0.001564,1.405680,-0.002423,22.542752,113.958754,5.524254,5
24.177932,-9.758797,-2.151811,0.014592,0.001733,1.427822,-0.002386,22.542751,113.958752,5.524551,5
24.198136,-9.731197,-2.145997,0.014303,0.001096,1.399531,-0.002585,22.542751,113.958750,5.524845,5
24.217720,-9.697714,-2.139022,0.013955,0.002697,1.381569,-0.002035,22.542750,113.958748,5.525131,5
24.238985,-9.657474,-2.130709,0.013351,-0.000772,1.938179,-0.002993,22.542750,113.958746,5.525405,5
24.257592,-9.610179,-2.120997,0.012580,-0.000310,1.875937,-0.002939,22.542750,113.958744,5.525665,5
24.277488,-9.556134,-2.109945,0.011598,-0.002486,1.790155,-0.003223,22.542749,113.958742,5.525905,5
24.297450,-9.495791,-2.097638,0.010320,-0.003156,1.700146,-0.003315,22.542749,113.958740,5.526120,5
24.317586,-9.429436,-2.084132,0.008798,-0.002835,1.738058,-0.003272,22.542749,113.958739,5.526304,5
24.338706,-9.357238,-2.069460,0.007078,-0.001683,1.909850,-0.003108,22.542748,113.958737,5.526454,5
24.357451,-9.279424,-2.053663,0.005228,-0.004976,1.517113,-0.003442,22.542748,113.958735,5.526567,5
24.377483,-9.196325,-2.036808,0.003316,-0.005546,1.402849,-0.003440,22.542747,113.958733,5.526640,5
24.397458,-9.108395,-2.018981,0.001431,-0.004365,1.603088,-0.003419,22.542747,113.958731,5.526674,5
24.417388,-9.016265,-2.000306,-0.000391,-0.006715,1.070321,-0.003343,22.542747,113.958730,5.526671,5
24.438787,-8.920567,-1.980906,-0.002131,-0.006911,0.993971,-0.003307,22.542746,113.958728,5.526632,5
24.457584,-8.821762,-1.960872,-0.003728,-0.007153,0.834886,-0.003179,22.542746,113.958726,5.526560,5
24.477497,-8.720189,-1.940271,-0.005162,-0.004058,1.632233,-0.003401,22.542746,113.958724,5.526457,5
24.497541,-8.616177,-1.919167,-0.006435,-0.007196,0.754359,-0.003077,22.542745,113.958723,5.526327,5
24.517382,-8.510075,-1.897631,-0.007547,-0.007281,0.624225,-0.002906,22.542745,113.958721,5.526174,5
24.538611,-8.402233,-1.875731,-0.008500,-0.007344,0.539948,-0.002792,22.542745,113.958719,5.526000,5
24.557454,-8.292962,-1.853526,-0.009288,-0.007735,0.436099,-0.002650,22.542744,113.958718,5.525810,5
24.577664,-8.182528,-1.831069,-0.009917,-0.007306,0.580875,-0.002847,22.542744,113.958716,5.525607,5
24.597638,-8.071171,-1.808405,-0.010399,-0.008108,0.378436,-0.002564,22.542744,113.958714,5.525393,5
24.617569,-7.959117,-1.785579,-0.010745,-0.008484,0.275808,-0.002405,22.542743,113.958713,5.525172,5
24.639114,-7.846572,-1.762631,-0.010965,-0.008529,0.253080,-0.002368,22.542743,113.958711,5.524944,5
24.657627,-7.733722,-1.739596,-0.011068,-0.008749,0.176754,-0.002237,22.542743,113.958710,5.524715,5
24.677583,-7.620728,-1.716506,-0.011066,-0.008632,0.212131,-0.002300,22.542742,113.958708,5.524487,5
24.697462,-7.507727,-1.693389,-0.010973,-0.008879,0.131711,-0.002151,22.542742,113.958707,5.524258,5
24.717495,-7.394841,-1.670267,-0.010800,-0.008918,0.106083,-0.002101,22.542742,113.958705,5.524035,5
24.740589,-7.282177,-1.647162,-0.010555,-0.008690,0.193814,-0.002268,22.542741,113.958704,5.523817,5
24.757454,-7.169828,-1.624091,-0.010250,-0.008577,0.231852,-0.002333,22.542741,113.958702,5.523604,5
24.777509,-7.057867,-1.601070,-0.009898,-0.008936,0.056494,-0.001998,22.542741,113.958701,5.523399,5
24.797508,-6.946355,-1.578110,-0.009506,-0.008928,0.094550,-0.002078,22.542741,113.958700,5.523202,5
24.817439,-6.835347,-1.555222,-0.009083,-0.008895,0.029059,-0.001930,22.542740,113.958698,5.523014,5
24.838850,-6.724882,-1.532415,-0.008632,-0.008826,0.013911,-0.001887,22.542740,113.958697,5.522835,5
24.857511,-6.614992,-1.509694,-0.008163,-0.008852,0.018496,-0.001900,22.542740,113.958696,5.522666,5
24.877603,-6.505702,-1.487066,-0.007685,-0.008932,0.048763,-0.001980,22.542739,113.958694,5.522507,5
24.897521,-6.397029,-1.464532,-0.007200,-0.008668,-0.003109,-0.001828,22.542739,113.958693,5.522357,5
24.917540,-6.288982,-1.442097,-0.006713,-0.008594,-0.007661,-0.001808,22.542739,113.958692,5.522218,5
24.940833,-6.181570,-1.419762,-0.006225,-0.008514,-0.011190,-0.001788,22.542739,113.958690,5.522089,5
24.957530,-6.074792,-1.397526,-0.005744,-0.008429,-0.013838,-0.001769,22.542738,113.958689,5.521970,5
24.977502,-5.968648,-1.375390,-0.005274,-0.008799,0.009756,-0.001874,22.542738,113.958688,5.521861,5
24.997585,-5.863132,-1.353354,-0.004815,-0.008160,-0.017749,-0.001718,22.542738,113.958687,5.521761,5
25.017693,-5.758235,-1.331415,-0.004369,-0.008252,-0.017004,-0.001733,22.542738,113.958686,5.521672,5
25.038895,-5.653950,-1.309574,-0.003935,-0.008115,-0.017955,-0.001711,22.542737,113.958685,5.521591,5
25.057467,-5.550261,-1.287826,-0.003519,-0.007978,-0.018029,-0.001689,22.542737,113.958684,5.521518,5
25.077439,-5.447161,-1.266171,-0.003123,-0.007886,-0.017712,-0.001676,22.542737,113.958683,5.521454,5
25.097505,-5.344632,-1.244606,-0.002744,-0.007796,-0.017172,-0.001661,22.542737,113.958682,5.521398,5
25.117500,-5.242660,-1.223128,-0.002385,-0.007666,-0.016061,-0.001638,22.542736,113.958680,5.521349,5
25.138726,-5.141232,-1.201735,-0.002043,-0.007709,-0.016464,-0.001645,22.542736,113.958679,5.521307,5
25.157727,-5.040330,-1.180424,-0.001721,-0.007537,-0.014709,-0.001616,22.542736,113.958678,5.521272,5
25.177501,-4.939940,-1.159192,-0.001420,-0.007454,-0.013731,-0.001602,22.542736,113.958677,5.521243,5
25.197460,-4.840047,-1.138036,-0.001138,-0.006685,-0.012205,-0.001455,22.542736,113.958676,5.521220,5
25.217483,-4.740631,-1.116964,-0.000874,-0.007415,-0.013229,-0.001595,22.542735,113.958676,5.521204,5
25.238693,-4.641731,-1.096020,-0.000697,-0.000824,-0.011267,-0.000786,22.542735,113.958675,5.521188,5
25.257498,-4.543680,-1.075312,-0.000654,0.018425,-0.188549,0.000682,22.542735,113.958674,5.521174,5
25.277807,-4.447021,-1.054975,-0.000198,0.014941,-0.097963,0.000340,22.542735,113.958673,5.521170,5
25.297511,-4.352405,-1.035138,0.000593,0.004434,-0.015281,-0.000349,22.542735,113.958672,5.521180,5
25.317578,-4.259895,-1.015808,0.001517,0.016911,-0.347589,0.002200,22.542734,113.958671,5.521209,5
25.340685,-4.169182,-0.996916,0.002339,-0.004670,-0.011673,-0.001187,22.542734,113.958670,5.521255,5
25.357655,-4.079966,-0.978401,0.002948,0.016206,-0.218203,0.002853,22.542734,113.958669,5.521313,5
25.377526,-3.992092,-0.960231,0.003414,0.015629,-0.209104,0.003039,22.542734,113.958669,5.521383,5
25.397738,-3.905442,-0.942377,0.003792,0.013910,-0.144991,0.003203,22.542734,113.958668,5.521461,5
25.417456,-3.819792,-0.924790,0.004073,0.013293,-0.107287,0.003231,22.542734,113.958667,5.521544,5
25.440587,-3.734812,-0.907399,0.004216,0.016388,-0.254693,0.002586,22.542733,113.958666,5.521631,5
25.457637,-3.650131,-0.890126,0.004177,0.010918,0.083310,0.003210,22.542733,113.958666,5.521717,5
25.477706,-3.565434,-0.872905,0.003991,0.011806,0.021425,0.003255,22.542733,113.958665,5.521801,5
25.497692,-3.480490,-0.855685,0.003707,0.008912,0.161424,0.003007,22.542733,113.958664,5.521879,5
25.517704,-3.395115,-0.838425,0.003356,0.008404,0.178104,0.002935,22.542733,113.958664,5.521950,5
25.538898,-3.309156,-0.821091,0.002950,0.007907,0.192109,0.002854,22.542733,113.958663,5.522014,5
25.557607,-3.222537,-0.803663,0.002528,0.006451,0.191226,0.002566,22.542732,113.958662,5.522069,5
25.577834,-3.135329,-0.786152,0.002147,0.006938,0.201216,0.002668,22.542732,113.958662,5.522115,5
25.597613,-3.047688,-0.768584,0.001833,0.004619,0.118839,0.002122,22.542732,113.958661,5.522153,5
25.617677,-2.959714,-0.750975,0.001575,0.003555,0.112421,0.001777,22.542732,113.958660,5.522187,5
25.638941,-2.871432,-0.733327,0.001339,0.002997,0.113140,0.001553,22.542732,113.958660,5.522217,5
25.657473,-2.782841,-0.715637,0.001109,0.003262,0.113729,0.001664,22.542732,113.958659,5.522240,5
25.677736,-2.693966,-0.697910,0.000889,0.002144,0.092043,0.001133,22.542732,113.958659,5.522259,5
25.697683,-2.604852,-0.680150,0.000687,0.002526,0.104788,0.001337,22.542732,113.958658,5.522274,5
25.717677,-2.515536,-0.662365,0.000508,0.001701,0.078396,0.000851,22.542731,113.958658,5.522285,5
25.738766,-2.426047,-0.644559,0.000349,0.001984,0.086426,0.001035,22.542731,113.958657,5.522293,5
25.757649,-2.336405,-0.626735,0.000207,0.001211,0.066830,0.000519,22.542731,113.958657,5.522300,5
25.777387,-2.246634,-0.608896,0.000082,0.000895,0.059796,0.000365,22.542731,113.958656,5.522300,5
25.797460,-2.156759,-0.591047,-0.000024,0.001345,0.069985,0.000599,22.542731,113.958656,5.522300,5
25.817490,-2.066805,-0.573190,-0.000113,0.001061,0.063385,0.000441,22.542731,113.958655,5.522300,5
25.838900,-1.976791,-0.555328,-0.000186,0.000118,0.044381,0.000025,22.542731,113.958655,5.522297,5
25.857743,-1.886734,-0.537464,-0.000245,0.000389,0.049798,0.000152,22.542731,113.958655,5.522290,5
25.877567,-1.796652,-0.519600,-0.000290,-0.000204,0.032708,-0.000224,22.542731,113.958654,5.522282,5
25.897592,-1.706554,-0.501738,-0.000323,-0.000166,0.034943,-0.000182,22.542730,113.958654,5.522274,5
25.917383,-1.616456,-0.483881,-0.000344,-0.000235,0.030555,-0.000262,22.542730,113.958653,5.522267,5
25.941019,-1.526367,-0.466031,-0.000356,-0.000294,0.024772,-0.000352,22.542730,113.958653,5.522259,5
25.957481,-1.436296,-0.448190,-0.000359,-0.000237,0.018529,-0.000419,22.542730,113.958653,5.522252,5
25.977446,-1.346251,-0.430358,-0.000353,-0.000268,0.019967,-0.000408,22.542730,113.958653,5.522244,5
25.997638,-1.256235,-0.412539,-0.000341,-0.000010,0.013472,-0.000424,22.542730,113.958652,5.522236,5
26.017438,-1.166254,-0.394732,-0.000322,0.000166,0.011368,-0.000406,22.542730,113.958652,5.522229,5
26.038944,-1.076310,-0.376941,-0.000298,0.000272,0.010418,-0.000391,22.542730,113.958652,5.522221,5
26.057524,-0.986405,-0.359165,-0.000270,0.000526,0.008700,-0.000350,22.542730,113.958652,5.522213,5
26.077662,-0.896540,-0.341406,-0.000238,-0.000143,0.015861,-0.000429,22.542730,113.958651,5.522206,5
26.097569,-0.806713,-0.323667,-0.000203,0.001446,0.005302,-0.000182,22.542730,113.958651,5.522198,5
26.117537,-0.716923,-0.305948,-0.000165,0.001607,0.004758,-0.000148,22.542730,113.958651,5.522197,5
26.138815,-0.627169,-0.288249,-0.000126,0.001446,0.003362,-0.000079,22.542730,113.958651,5.522197,5
26.157535,-0.537448,-0.270568,-0.000085,0.001662,0.004255,-0.000121,22.542729,113.958651,5.522197,5
26.177665,-0.447757,-0.252903,-0.000045,0.001020,0.002273,-0.000023,22.542729,113.958651,5.522197,5
26.197391,-0.358092,-0.235254,-0.000003,0.000989,0.001690,0.000010,22.542729,113.958651,5.522197,5
26.217443,-0.268449,-0.217620,0.000038,0.001024,0.001207,0.000040,22.542729,113.958651,5.522197,5
26.238838,-0.178824,-0.199999,0.000079,0.000982,0.000812,0.000065,22.542729,113.958650,5.522197,5
26.257437,-0.089212,-0.182389,0.000119,0.000929,0.000644,0.000076,22.542729,113.958650,5.522197,5
26.277609,0.000392,-0.164789,0.000158,0.000753,0.000238,0.000103,22.542729,113.958650,5.522197,5
26.297596,0.089989,-0.147193,0.000196,0.000671,0.000038,0.000114,22.542729,113.958650,5.522201,5
26.317454,0.179579,-0.129600,0.000233,0.000604,-0.000113,0.000121,22.542729,113.958650,5.522209,5
26.338702,0.269154,-0.112009,0.000269,0.000488,-0.000265,0.000126,22.542729,113.958650,5.522216,5
26.357461,0.358709,-0.094418,0.000303,0.000569,-0.000173,0.000123,22.542729,113.958650,5.522224,5
26.377395,0.448236,-0.076828,0.000335,0.000328,-0.000363,0.000122,22.542729,113.958651,5.522232,5
26.397560,0.537729,-0.059241,0.000366,0.000261,-0.000376,0.000116,22.542729,113.958651,5.522239,5
26.417758,0.627181,-0.041658,0.000394,0.000365,-0.000348,0.000124,22.542729,113.958651,5.522247,5
26.438699,0.716584,-0.024078,0.000421,0.000404,-0.000327,0.000125,22.542729,113.958651,5.522254,5
26.457457,0.805932,-0.006504,0.000446,0.000230,-0.000375,0.000112,22.542729,113.958651,5.522262,5
26.477594,0.895219,0.011065,0.000470,0.000140,-0.000350,0.000096,22.542729,113.958651,5.522270,5
26.497462,0.984438,0.028625,0.000491,0.000002,-0.000263,0.000063,22.542729,113.958651,5.522277,5
26.517699,1.073583,0.046178,0.000511,-0.000094,-0.000174,0.000040,22.542729,113.958651,5.522285,5
26.539080,1.162647,0.063721,0.000529,-0.000137,-0.000126,0.000030,22.542729,113.958652,5.522293,5
26.557686,1.251624,0.081254,0.000546,-0.000177,-0.000076,0.000020,22.542729,113.958652,5.522300,5
26.577685,1.340508,0.098775,0.000561,-0.000157,-0.000101,0.000025,22.542729,113.958652,5.522311,5
26.597707,1.429292,0.116283,0.000575,-0.000232,-0.000001,0.000006,22.542729,113.958652,5.522326,5
26.617447,1.517970,0.133778,0.000587,-0.000249,0.000022,0.000001,22.542729,113.958653,5.522341,5
26.638737,1.606535,0.151258,0.000598,-0.000023,-0.000241,0.000057,22.542729,113.958653,5.522357,5
26.657671,1.694982,0.168722,0.000607,-0.000311,0.000112,-0.000018,22.542729,113.958653,5.522372,5
26.677745,1.783304,0.186169,0.000615,-0.000336,0.000152,-0.000030,22.542729,113.958654,5.522387,5
26.697798,1.871494,0.203598,0.000621,-0.000265,0.000045,-0.000003,22.542729,113.958654,5.522402,5
26.717530,1.959543,0.221006,0.000629,-0.000281,0.000068,-0.000008,22.542729,113.958654,5.522418,5
26.738783,2.047405,0.238386,0.000653,-0.000420,-0.012334,-0.000069,22.542729,113.958655,5.522433,5
26.757398,2.134981,0.255717,0.000712,-0.000478,-0.035612,-0.000080,22.542729,113.958655,5.522448,5
26.777637,2.222171,0.272981,0.000808,-0.000530,-0.056227,-0.000090,22.542729,113.958655,5.522463,5
26.797486,2.308908,0.290163,0.000929,-0.000559,-0.066631,-0.000098,22.542729,113.958656,5.522480,5
26.817406,2.395150,0.307256,0.001059,-0.000586,-0.074909,-0.000108,22.542730,113.958656,5.522503,5
26.840659,2.480859,0.324251,0.001195,-0.000607,-0.083079,-0.000114,22.542730,113.958657,5.522526,5
26.857367,2.565989,0.341141,0.001336,-0.000596,-0.078673,-0.000111,22.542730,113.958657,5.522552,5
26.877599,2.650499,0.357917,0.001483,-0.000639,-0.096394,-0.000120,22.542730,113.958658,5.522583,5
26.897451,2.734350,0.374571,0.001635,-0.000654,-0.102853,-0.000123,22.542730,113.958658,5.522613,5
26.917364,2.817514,0.391098,0.001788,-0.000665,-0.107726,-0.000126,22.542730,113.958659,5.522651,5
26.940747,2.899967,0.407493,0.001941,-0.000677,-0.114359,-0.000129,22.542730,113.958659,5.522689,5
26.957492,2.981684,0.423750,0.002093,-0.000684,-0.118470,-0.000130,22.542730,113.958660,5.522731,5
26.977350,3.062646,0.439867,0.002240,-0.000669,-0.109959,-0.000127,22.542730,113.958660,5.522777,5
26.997322,3.142835,0.455839,0.002384,-0.000689,-0.124452,-0.000130,22.542730,113.958661,5.522823,5
27.017442,3.222238,0.471664,0.002523,-0.000688,-0.125259,-0.000130,22.542730,113.958662,5.522876,5
27.038567,3.300855,0.487341,0.002651,-0.000686,-0.125147,-0.000130,22.542730,113.958662,5.522929,5
27.057252,3.378706,0.502875,0.002762,-0.000664,-0.115251,-0.000128,22.542730,113.958663,5.522983,5
27.077411,3.455809,0.518270,0.002854,-0.000654,-0.111941,-0.000126,22.542730,113.958664,5.523042,5
27.097319,3.532176,0.533526,0.002933,-0.000648,-0.111284,-0.000124,22.542731,113.958664,5.523103,5
27.117361,3.607808,0.548645,0.003001,-0.000689,-0.123258,-0.000131,22.542731,113.958665,5.523164,5
27.138739,3.682710,0.563627,0.003061,-0.000637,-0.109982,-0.000120,22.542731,113.958666,5.523225,5
27.157313,3.756889,0.578474,0.003112,-0.000632,-0.108930,-0.000119,22.542731,113.958666,5.523286,5
27.177251,3.830354,0.593187,0.003152,-0.000627,-0.107701,-0.000118,22.542731,113.958667,5.523347,5
27.197290,3.903114,0.607767,0.003183,-0.000612,-0.104175,-0.000114,22.542731,113.958668,5.523409,5
27.217355,3.975175,0.622217,0.003205,-0.000592,-0.100494,-0.000108,22.542731,113.958669,5.523478,5
27.238633,4.046546,0.636536,0.003219,-0.000617,-0.105246,-0.000115,22.542731,113.958669,5.523547,5
27.257449,4.117235,0.650728,0.003224,-0.000574,-0.097394,-0.000103,22.542731,113.958670,5.523615,5
27.277393,4.187249,0.664794,0.003222,-0.000562,-0.095208,-0.000099,22.542731,113.958671,5.523684,5
27.297344,4.256598,0.678734,0.003211,-0.000557,-0.094131,-0.000098,22.542732,113.958672,5.523753,5
27.317393,4.325290,0.692551,0.003194,-0.000532,-0.089928,-0.000091,22.542732,113.958673,5.523818,5
27.338660,4.393333,0.706246,0.003170,-0.000526,-0.088877,-0.000089,22.542732,113.958673,5.523879,5
27.357626,4.460738,0.719821,0.003141,-0.000568,-0.096299,-0.000101,22.542732,113.958674,5.523940,5
27.377650,4.527512,0.733277,0.003105,-0.000494,-0.083516,-0.000080,22.542732,113.958675,5.524001,5
27.397657,4.593663,0.746616,0.003065,-0.000474,-0.080317,-0.000075,22.542732,113.958676,5.524062,5
27.417563,4.659202,0.759840,0.003019,-0.000460,-0.078195,-0.000072,22.542732,113.958677,5.524123,5
27.440693,4.724135,0.772951,0.002970,-0.000453,-0.077133,-0.000071,22.542733,113.958678,5.524184,5
27.457598,4.788474,0.785949,0.002916,-0.000468,-0.079255,-0.000073,22.542733,113.958679,5.524245,5
27.477673,4.852225,0.798836,0.002859,-0.000416,-0.071831,-0.000071,22.542733,113.958680,5.524306,5
27.497813,4.915398,0.811615,0.002798,-0.000402,-0.069719,-0.000071,22.542733,113.958681,5.524360,5
27.517588,4.978002,0.824287,0.002735,-0.000388,-0.067620,-0.000069,22.542733,113.958682,5.524414,5
27.540958,5.040045,0.836852,0.002668,-0.000481,-0.081381,-0.000076,22.542733,113.958682,5.524467,5
27.557590,5.101537,0.849314,0.002599,-0.000362,-0.063447,-0.000065,22.542733,113.958683,5.524520,5
27.577599,5.162485,0.861673,0.002529,-0.000355,-0.062407,-0.000064,22.542734,113.958684,5.524574,5
27.597485,5.222899,0.873932,0.002457,-0.000334,-0.059298,-0.000060,22.542734,113.958685,5.524624,5
27.617608,5.282787,0.886091,0.002383,-0.000321,-0.057236,-0.000058,22.542734,113.958686,5.524670,5
27.638791,5.342159,0.898152,0.002308,-0.000314,-0.056208,-0.000057,22.542734,113.958687,5.524715,5
27.657570,5.401022,0.910117,0.002232,-0.000307,-0.055182,-0.000055,22.542734,113.958689,5.524761,5
27.677594,5.459385,0.921988,0.002156,-0.000287,-0.052117,-0.000052,22.542734,113.958690,5.524807,5
27.697400,5.517257,0.933766,0.002078,-0.000348,-0.061369,-0.000063,22.542734,113.958691,5.524848,5
27.717452,5.574646,0.945453,0.002000,-0.000259,-0.048060,-0.000046,22.542735,113.958692,5.524887,5
27.739052,5.631560,0.957049,0.001922,-0.000266,-0.049070,-0.000047,22.542735,113.958693,5.524925,5
27.757456,5.688009,0.968558,0.001844,-0.000232,-0.044037,-0.000041,22.542735,113.958694,5.524963,5
27.777402,5.744000,0.979980,0.001766,-0.000328,-0.058266,-0.000059,22.542735,113.958695,5.525001,5
